

   Time         sum(rTop)     sum(rRoot)    sum(vTop)     sum(vRoot)     sum(vBot)    hTop       hRoot      hBot      A-level
    [T]           [L]           [L]           [L]           [L]            [L]        [L]         [L]       [L] 

   328.04199   .803617E-02   .000000E+00   .799224E-02   .000000E+00  -.483066E-05  -1819.411       .000  -1080.037       1
   328.08301   .114178E-01   .000000E+00   .113598E-01   .000000E+00  -.954750E-05  -1945.306       .000  -1080.038       2
   328.12500   .146148E-01   .000000E+00   .145496E-01   .000000E+00  -.143794E-04  -2124.011       .000  -1080.059       3
   328.16699   .176798E-01   .000000E+00   .176093E-01   .000000E+00  -.192071E-04  -2301.157       .000  -1080.142       4
   328.20801   .204217E-01   .000000E+00   .203457E-01   .000000E+00  -.239222E-04  -2443.964       .000  -1080.308       5
   328.25000   .238080E-01   .000000E+00   .237289E-01   .000000E+00  -.287338E-04  -2822.466       .000  -1080.572       6
   328.29199   .273283E-01   .000000E+00   .272483E-01   .000000E+00  -.335310E-04  -3254.440       .000  -1080.922       7
   328.33301   .298606E-01   .000000E+00   .297986E-01   .000000E+00  -.382018E-04  -3421.030       .000  -1081.334       8
   328.37500   .326228E-01   .000000E+00   .326060E-01   .000000E+00  -.429564E-04  -3971.673       .000  -1081.810       9
   328.41699   .412488E-01   .000000E+00   .415299E-01   .000000E+00  -.476915E-04 -10433.510       .000  -1082.323      10
   328.45801   .527976E-01   .000000E+00   .533445E-01   .000000E+00  -.522906E-04 -38445.460       .000  -1082.811      11
   328.50000   .643169E-01   .000000E+00   .646429E-01   .000000E+00  -.569807E-04-100000.000       .000  -1083.203      12
   328.54199   .761385E-01   .000000E+00   .712592E-01   .000000E+00  -.616538E-04-100000.000       .000  -1083.397      13
   328.58301   .864806E-01   .000000E+00   .759379E-01   .000000E+00  -.662212E-04-100000.000       .000  -1083.359      14
   328.62500   .956254E-01   .000000E+00   .798126E-01   .000000E+00  -.709049E-04-100000.000       .000  -1083.077      15
   328.66699   .100806E+00   .000000E+00   .829863E-01   .000000E+00  -.756072E-04-100000.000       .000  -1082.578      16
   328.70801   .103549E+00   .000000E+00   .855794E-01   .000000E+00  -.802335E-04 -99018.560       .000  -1081.923      17
   328.75000   .106568E+00   .000000E+00   .884910E-01   .000000E+00  -.850109E-04 -79893.920       .000  -1081.044      18
   328.79199   .109287E+00   .000000E+00   .911489E-01   .000000E+00  -.898360E-04 -74703.050       .000  -1080.086      19
   328.83301   .111549E+00   .000000E+00   .933752E-01   .000000E+00  -.945937E-04 -71009.070       .000  -1079.203      20
   328.87500   .114082E+00   .000000E+00   .958764E-01   .000000E+00  -.994983E-04 -77973.380       .000  -1078.431      21
   328.91699   .116166E+00   .000000E+00   .979363E-01   .000000E+00  -.104438E-03 -73858.380       .000  -1077.845      22
   328.95801   .117804E+00   .000000E+00   .995601E-01   .000000E+00  -.109285E-03 -66763.740       .000  -1077.458      23
   329.00000   .119235E+00   .000000E+00   .100976E+00   .000000E+00  -.114257E-03 -58763.470       .000  -1077.237      24
   329.04199   .120676E+00   .000000E+00   .102410E+00   .000000E+00  -.119236E-03 -56128.200       .000  -1077.179      25
   329.08301   .122263E+00   .000000E+00   .103992E+00   .000000E+00  -.124093E-03 -58588.160       .000  -1077.256      26
   329.12500   .124000E+00   .000000E+00   .105721E+00   .000000E+00  -.129060E-03 -63155.790       .000  -1077.453      27
   329.16699   .125826E+00   .000000E+00   .107540E+00   .000000E+00  -.134014E-03 -69588.190       .000  -1077.746      28
   329.20801   .127243E+00   .000000E+00   .108948E+00   .000000E+00  -.138831E-03 -65811.170       .000  -1078.105      29
   329.25000   .128708E+00   .000000E+00   .110408E+00   .000000E+00  -.143749E-03 -65482.520       .000  -1078.534      30
   329.29199   .130172E+00   .000000E+00   .111866E+00   .000000E+00  -.148647E-03 -66090.490       .000  -1079.006      31
   329.33301   .131876E+00   .000000E+00   .113599E+00   .000000E+00  -.153407E-03 -83913.230       .000  -1079.503      32
   329.37500   .135134E+00   .000000E+00   .115335E+00   .000000E+00  -.158255E-03-100000.000       .000  -1079.982      33
   329.41699   .140490E+00   .000000E+00   .116809E+00   .000000E+00  -.163082E-03-100000.000       .000  -1080.442      34
   329.45801   .148597E+00   .000000E+00   .118311E+00   .000000E+00  -.167774E-03-100000.000       .000  -1080.860      35
   329.50000   .159982E+00   .000000E+00   .119871E+00   .000000E+00  -.172556E-03-100000.000       .000  -1081.201      36
   329.54199   .172782E+00   .000000E+00   .121414E+00   .000000E+00  -.177327E-03-100000.000       .000  -1081.381      37
   329.58301   .182817E+00   .000000E+00   .122765E+00   .000000E+00  -.181976E-03-100000.000       .000  -1081.341      38
   329.62500   .191494E+00   .000000E+00   .124091E+00   .000000E+00  -.186754E-03-100000.000       .000  -1081.054      39
   329.66699   .198241E+00   .000000E+00   .125329E+00   .000000E+00  -.191555E-03-100000.000       .000  -1080.544      40
   329.70801   .202363E+00   .000000E+00   .126449E+00   .000000E+00  -.196278E-03-100000.000       .000  -1079.902      41
   329.75000   .205878E+00   .000000E+00   .127536E+00   .000000E+00  -.201143E-03-100000.000       .000  -1079.176      42
   329.79199   .209065E+00   .000000E+00   .128577E+00   .000000E+00  -.206051E-03-100000.000       .000  -1078.460      43
   329.83301   .211852E+00   .000000E+00   .129557E+00   .000000E+00  -.210882E-03-100000.000       .000  -1077.829      44
   329.87500   .214427E+00   .000000E+00   .130529E+00   .000000E+00  -.215858E-03-100000.000       .000  -1077.289      45
   329.91699   .216717E+00   .000000E+00   .131475E+00   .000000E+00  -.220857E-03-100000.000       .000  -1076.879      46
   329.95801   .218737E+00   .000000E+00   .132377E+00   .000000E+00  -.225756E-03-100000.000       .000  -1076.606      47
   330.00000   .220650E+00   .000000E+00   .133278E+00   .000000E+00  -.230783E-03-100000.000       .000  -1076.448      48
   330.04199   .222702E+00   .000000E+00   .134170E+00   .000000E+00  -.235816E-03-100000.000       .000  -1076.403      49
   330.08301   .224697E+00   .000000E+00   .135024E+00   .000000E+00  -.240730E-03-100000.000       .000  -1076.453      50
   330.12500   .226752E+00   .000000E+00   .135880E+00   .000000E+00  -.245755E-03-100000.000       .000  -1076.588      51
   330.16699   .228815E+00   .000000E+00   .136719E+00   .000000E+00  -.250772E-03-100000.000       .000  -1076.791      52
   330.20801   .230740E+00   .000000E+00   .137523E+00   .000000E+00  -.255660E-03-100000.000       .000  -1077.042      53
   330.25000   .232530E+00   .000000E+00   .138326E+00   .000000E+00  -.260646E-03-100000.000       .000  -1077.345      54
   330.29199   .234231E+00   .000000E+00   .139115E+00   .000000E+00  -.265621E-03-100000.000       .000  -1077.687      55
   330.33301   .236289E+00   .000000E+00   .139919E+00   .000000E+00  -.270457E-03-100000.000       .000  -1078.054      56
   330.37500   .239420E+00   .000000E+00   .140815E+00   .000000E+00  -.275388E-03-100000.000       .000  -1078.461      57
   330.41699   .244159E+00   .000000E+00   .141791E+00   .000000E+00  -.280293E-03-100000.000       .000  -1078.897      58
   330.45801   .250593E+00   .000000E+00   .142806E+00   .000000E+00  -.285068E-03-100000.000       .000  -1079.311      59
   330.50000   .258362E+00   .000000E+00   .143858E+00   .000000E+00  -.289929E-03-100000.000       .000  -1079.684      60
   330.54199   .266527E+00   .000000E+00   .144914E+00   .000000E+00  -.294776E-03-100000.000       .000  -1079.942      61
   330.58301   .274164E+00   .000000E+00   .145913E+00   .000000E+00  -.299503E-03-100000.000       .000  -1080.039      62
   330.62500   .281079E+00   .000000E+00   .146884E+00   .000000E+00  -.304348E-03-100000.000       .000  -1079.964      63
   330.66699   .286458E+00   .000000E+00   .147791E+00   .000000E+00  -.309198E-03-100000.000       .000  -1079.725      64
   330.70801   .290177E+00   .000000E+00   .148619E+00   .000000E+00  -.313950E-03-100000.000       .000  -1079.371      65
   330.75000   .293041E+00   .000000E+00   .149428E+00   .000000E+00  -.318837E-03-100000.000       .000  -1078.938      66
   330.79199   .295459E+00   .000000E+00   .150206E+00   .000000E+00  -.323751E-03-100000.000       .000  -1078.495      67
   330.83301   .297631E+00   .000000E+00   .150940E+00   .000000E+00  -.328570E-03-100000.000       .000  -1078.105      68
   330.87500   .299699E+00   .000000E+00   .151669E+00   .000000E+00  -.333522E-03-100000.000       .000  -1077.787      69
   330.91699   .301706E+00   .000000E+00   .152379E+00   .000000E+00  -.338486E-03-100000.000       .000  -1077.573      70
   330.95801   .303535E+00   .000000E+00   .153056E+00   .000000E+00  -.343342E-03-100000.000       .000  -1077.467      71
   331.00000   .305284E+00   .000000E+00   .153731E+00   .000000E+00  -.348321E-03-100000.000       .000  -1077.462      72
   331.04199   .306666E+00   .000000E+00   .154368E+00   .000000E+00  -.353293E-03-100000.000       .000  -1077.552      73
   331.08301   .307840E+00   .000000E+00   .154972E+00   .000000E+00  -.358144E-03-100000.000       .000  -1077.721      74
   331.12500   .308899E+00   .000000E+00   .155582E+00   .000000E+00  -.363097E-03-100000.000       .000  -1077.970      75
   331.16699   .310674E+00   .000000E+00   .156204E+00   .000000E+00  -.368035E-03-100000.000       .000  -1078.297      76
   331.20801   .313337E+00   .000000E+00   .156822E+00   .000000E+00  -.372843E-03-100000.000       .000  -1078.688      77
   331.25000   .316469E+00   .000000E+00   .157451E+00   .000000E+00  -.377737E-03-100000.000       .000  -1079.154      78
   331.29199   .319653E+00   .000000E+00   .158070E+00   .000000E+00  -.382611E-03-100000.000       .000  -1079.662      79
   331.33301   .323390E+00   .000000E+00   .158713E+00   .000000E+00  -.387344E-03-100000.000       .000  -1080.170      80
   331.37500   .328370E+00   .000000E+00   .159416E+00   .000000E+00  -.392161E-03-100000.000       .000  -1080.689      81
   331.41699   .334844E+00   .000000E+00   .160178E+00   .000000E+00  -.396946E-03-100000.000       .000  -1081.178      82
   331.45801   .342735E+00   .000000E+00   .160941E+00   .000000E+00  -.401597E-03-100000.000       .000  -1081.621      83
   331.50000   .352154E+00   .000000E+00   .161741E+00   .000000E+00  -.406341E-03-100000.000       .000  -1081.994      84
   331.54199   .362064E+00   .000000E+00   .162532E+00   .000000E+00  -.411066E-03-100000.000       .000  -1082.242      85
   331.58301   .371508E+00   .000000E+00   .163284E+00   .000000E+00  -.415678E-03-100000.000       .000  -1082.339      86
   331.62500   .380534E+00   .000000E+00   .164019E+00   .000000E+00  -.420396E-03-100000.000       .000  -1082.287      87
   331.66699   .388316E+00   .000000E+00   .164709E+00   .000000E+00  -.425118E-03-100000.000       .000  -1082.096      88
   331.70801   .394549E+00   .000000E+00   .165335E+00   .000000E+00  -.429750E-03-100000.000       .000  -1081.810      89
   331.75000   .400078E+00   .000000E+00   .165956E+00   .000000E+00  -.434508E-03-100000.000       .000  -1081.459      90
   331.79199   .404792E+00   .000000E+00   .166555E+00   .000000E+00  -.439283E-03-100000.000       .000  -1081.103      91
   331.83301   .407804E+00   .000000E+00   .167112E+00   .000000E+00  -.443964E-03-100000.000       .000  -1080.801      92
   331.87500   .410045E+00   .000000E+00   .167664E+00   .000000E+00  -.448769E-03-100000.000       .000  -1080.569      93
   331.91699   .412508E+00   .000000E+00   .168204E+00   .000000E+00  -.453580E-03-100000.000       .000  -1080.438      94
   331.95801   .414526E+00   .000000E+00   .168717E+00   .000000E+00  -.458287E-03-100000.000       .000  -1080.417      95
   332.00000   .416447E+00   .000000E+00   .169229E+00   .000000E+00  -.463103E-03-100000.000       .000  -1080.504      96
   332.04199   .418644E+00   .000000E+00   .169742E+00   .000000E+00  -.467911E-03-100000.000       .000  -1080.695      97
   332.08301   .420829E+00   .000000E+00   .170238E+00   .000000E+00  -.472595E-03-100000.000       .000  -1080.969      98
   332.12500   .422879E+00   .000000E+00   .170738E+00   .000000E+00  -.477373E-03-100000.000       .000  -1081.331      99
   332.16699   .424851E+00   .000000E+00   .171232E+00   .000000E+00  -.482133E-03-100000.000       .000  -1081.756     100
   332.20801   .426529E+00   .000000E+00   .171710E+00   .000000E+00  -.486758E-03-100000.000       .000  -1082.216     101
   332.25000   .428463E+00   .000000E+00   .172198E+00   .000000E+00  -.491463E-03-100000.000       .000  -1082.723     102
   332.29199   .430012E+00   .000000E+00   .172677E+00   .000000E+00  -.496142E-03-100000.000       .000  -1083.255     103
   332.33301   .431251E+00   .000000E+00   .173178E+00   .000000E+00  -.500690E-03-100000.000       .000  -1083.792     104
   332.37500   .434427E+00   .000000E+00   .173777E+00   .000000E+00  -.505320E-03-100000.000       .000  -1084.359     105
   332.41699   .439468E+00   .000000E+00   .174413E+00   .000000E+00  -.509918E-03-100000.000       .000  -1084.921     106
   332.45801   .446182E+00   .000000E+00   .175101E+00   .000000E+00  -.514377E-03-100000.000       .000  -1085.446     107
   332.50000   .454174E+00   .000000E+00   .175822E+00   .000000E+00  -.518919E-03-100000.000       .000  -1085.895     108
   332.54199   .463674E+00   .000000E+00   .176573E+00   .000000E+00  -.523441E-03-100000.000       .000  -1086.199     109
   332.58301   .473409E+00   .000000E+00   .177301E+00   .000000E+00  -.527849E-03-100000.000       .000  -1086.310     110
   332.62500   .482519E+00   .000000E+00   .178020E+00   .000000E+00  -.532358E-03-100000.000       .000  -1086.213     111
   332.66699   .489146E+00   .000000E+00   .178683E+00   .000000E+00  -.536881E-03-100000.000       .000  -1085.907     112
   332.70801   .493689E+00   .000000E+00   .179279E+00   .000000E+00  -.541321E-03-100000.000       .000  -1085.429     113
   332.75000   .497351E+00   .000000E+00   .179856E+00   .000000E+00  -.545897E-03-100000.000       .000  -1084.815     114
   332.79199   .500594E+00   .000000E+00   .180412E+00   .000000E+00  -.550506E-03-100000.000       .000  -1084.148     115
   332.83301   .503282E+00   .000000E+00   .180937E+00   .000000E+00  -.555044E-03-100000.000       .000  -1083.522     116
   332.87500   .505550E+00   .000000E+00   .181462E+00   .000000E+00  -.559720E-03-100000.000       .000  -1082.964     117
   332.91699   .508057E+00   .000000E+00   .181981E+00   .000000E+00  -.564424E-03-100000.000       .000  -1082.528     118
   332.95801   .510512E+00   .000000E+00   .182482E+00   .000000E+00  -.569035E-03-100000.000       .000  -1082.229     119
   333.00000   .512654E+00   .000000E+00   .182986E+00   .000000E+00  -.573770E-03-100000.000       .000  -1082.049     120
   333.04199   .514054E+00   .000000E+00   .183462E+00   .000000E+00  -.578506E-03-100000.000       .000  -1081.982     121
   333.08301   .515056E+00   .000000E+00   .183917E+00   .000000E+00  -.583132E-03-100000.000       .000  -1082.007     122
   333.12500   .515857E+00   .000000E+00   .184372E+00   .000000E+00  -.587865E-03-100000.000       .000  -1082.114     123
   333.16699   .516924E+00   .000000E+00   .184824E+00   .000000E+00  -.592591E-03-100000.000       .000  -1082.300     124
   333.20801   .517948E+00   .000000E+00   .185258E+00   .000000E+00  -.597197E-03-100000.000       .000  -1082.556     125
   333.25000   .518667E+00   .000000E+00   .185692E+00   .000000E+00  -.601898E-03-100000.000       .000  -1082.893     126
   333.29199   .519267E+00   .000000E+00   .186121E+00   .000000E+00  -.606580E-03-100000.000       .000  -1083.293     127
   333.33301   .520142E+00   .000000E+00   .186578E+00   .000000E+00  -.611129E-03-100000.000       .000  -1083.734     128
   333.37500   .521540E+00   .000000E+00   .187115E+00   .000000E+00  -.615758E-03-100000.000       .000  -1084.230     129
   333.41699   .524346E+00   .000000E+00   .187720E+00   .000000E+00  -.620365E-03-100000.000       .000  -1084.752     130
   333.45801   .530383E+00   .000000E+00   .188372E+00   .000000E+00  -.624839E-03-100000.000       .000  -1085.264     131
   333.50000   .538991E+00   .000000E+00   .189076E+00   .000000E+00  -.629395E-03-100000.000       .000  -1085.706     132
   333.54199   .549163E+00   .000000E+00   .189790E+00   .000000E+00  -.633925E-03-100000.000       .000  -1085.997     133
   333.58301   .559240E+00   .000000E+00   .190480E+00   .000000E+00  -.638343E-03-100000.000       .000  -1086.074     134
   333.62500   .568176E+00   .000000E+00   .191149E+00   .000000E+00  -.642866E-03-100000.000       .000  -1085.913     135
   333.66699   .573928E+00   .000000E+00   .191760E+00   .000000E+00  -.647407E-03-100000.000       .000  -1085.525     136
   333.70801   .577083E+00   .000000E+00   .192304E+00   .000000E+00  -.651873E-03-100000.000       .000  -1084.954     137
   333.75000   .579794E+00   .000000E+00   .192831E+00   .000000E+00  -.656478E-03-100000.000       .000  -1084.252     138
   333.79199   .582428E+00   .000000E+00   .193338E+00   .000000E+00  -.661119E-03-100000.000       .000  -1083.514     139
   333.83301   .584694E+00   .000000E+00   .193817E+00   .000000E+00  -.665689E-03-100000.000       .000  -1082.840     140
   333.87500   .586419E+00   .000000E+00   .194291E+00   .000000E+00  -.670399E-03-100000.000       .000  -1082.257     141
   333.91699   .587647E+00   .000000E+00   .194751E+00   .000000E+00  -.675143E-03-100000.000       .000  -1081.816     142
   333.95801   .588717E+00   .000000E+00   .195191E+00   .000000E+00  -.679792E-03-100000.000       .000  -1081.528     143
   334.00000   .589540E+00   .000000E+00   .195629E+00   .000000E+00  -.684564E-03-100000.000       .000  -1081.372     144
   334.04199   .590270E+00   .000000E+00   .196062E+00   .000000E+00  -.689338E-03-100000.000       .000  -1081.347     145
   334.08301   .591061E+00   .000000E+00   .196478E+00   .000000E+00  -.693997E-03-100000.000       .000  -1081.435     146
   334.12500   .591921E+00   .000000E+00   .196901E+00   .000000E+00  -.698761E-03-100000.000       .000  -1081.626     147
   334.16699   .592772E+00   .000000E+00   .197319E+00   .000000E+00  -.703508E-03-100000.000       .000  -1081.904     148
   334.20801   .593883E+00   .000000E+00   .197727E+00   .000000E+00  -.708131E-03-100000.000       .000  -1082.243     149
   334.25000   .595160E+00   .000000E+00   .198140E+00   .000000E+00  -.712843E-03-100000.000       .000  -1082.647     150
   334.29199   .596312E+00   .000000E+00   .198550E+00   .000000E+00  -.717530E-03-100000.000       .000  -1083.093     151
   334.33301   .597498E+00   .000000E+00   .198978E+00   .000000E+00  -.722087E-03-100000.000       .000  -1083.558     152
   334.37500   .599054E+00   .000000E+00   .199482E+00   .000000E+00  -.726730E-03-100000.000       .000  -1084.055     153
   334.41699   .603024E+00   .000000E+00   .200043E+00   .000000E+00  -.731345E-03-100000.000       .000  -1084.562     154
   334.45801   .609361E+00   .000000E+00   .200643E+00   .000000E+00  -.735829E-03-100000.000       .000  -1085.030     155
   334.50000   .617939E+00   .000000E+00   .201290E+00   .000000E+00  -.740396E-03-100000.000       .000  -1085.428     156
   334.54199   .176656E+00   .000000E+00  -.239974E+00   .000000E+00  -.744949E-03    -58.199       .000  -1085.702     157
   334.54999   .919385E-01   .000000E+00  -.324816E+00   .000000E+00  -.745812E-03    -51.507       .000  -1085.732     158
